"temp","CO2_av","CO2_med","Moving*","Modelled","CO2_scaled"
68,3.88636363636364,5,7.6852331671347,6.81669182484589,7.6852331671347
69,13.8548387096774,14,9.6852331671347,11.015891344216,9.6852331671347
72,23,23,11.7376141195156,21.5730907574667,11.7376141195156
74,22,22,13.7320585639601,23.7786785754467,13.7320585639601
78,21,21,15.7525713844729,20.3267974688851,15.7525713844729
79,19,19,17.9392380511396,19.1606092524032,17.9392380511396
80,19,19,20.5792380511396,18.3308203336477,20.5792380511396
81,19,19,23.6494134897361,18.020886758121,23.6494134897361
85,19,19,26.9236559139785,21.5639795787213,26.9236559139785
86,22,22,30.0666666666667,23.4280600088301,30.0666666666667
87,25,25,33.0666666666667,25.5965035066353,33.0666666666667
88,29,29,36.7333333333333,28.0258301609931,36.7333333333333
89,34,34,41,30.6805242106653,41
92,39,39,45.6,39.9920757150134,45.6
94,46,46,50.5333333333333,47.3657177302321,50.5333333333333
95,53,53,55.6666666666667,51.4152360064006,55.6666666666667
97,61,61,61,60.1333703310425,61
99,68,68,66.2666666666667,69.1091669781677,66.2666666666667
101,77,77,71.4666666666667,77.6101356165674,71.4666666666667
103,85,85,76.6,84.9037859150329,76.6
105,88,88,81.5333333333333,90.2576275423553,81.5333333333333
106,93,93,86.3333333333333,92.0473260728884,86.3333333333333
108,96,96,90.9333333333333,94.9148744458638,90.9333333333333
109,99,99,95.2666666666667,96.6389120701428,95.2666666666667
110,101,101,99,98.9872505075071,99
111,103,103,102.2,102.282983648875,102.2
112,106,106,104.666666666667,106.635157372387,104.666666666667
113,108,108,106.4,111.296625505075,106.4
114,111,111,107.666666666667,115.306193861192,107.666666666667
115,115,115,108.355555555556,117.702668254993,108.355555555556
117,118,118,108.688888888889,116.180548554893,108.688888888889
118,117,117,108.922222222222,113.59692753507,108.922222222222
119,116,116,109.255555555556,110.885663629969,109.255555555556
120,114,114,109.822222222222,108.862305260518,109.822222222222
121,111,111,110.742222222222,108.342400847647,110.742222222222
122,107,107,112.608888888889,109.715772496482,112.608888888889
123,103.333333333333,103,115.631111111111,111.669337048941,115.631111111111
124,101,101,120.447777777778,112.464285031145,120.447777777778
125,102.5,102.5,128.421111111111,110.36180696921,128.421111111111
126,106,106,140.654444444444,104.875543183647,140.654444444444
127,111.5,111.5,169.698383838384,100.528933172539,169.698383838384
128,119.8,120,198.96505050505,103.09786622836,198.96505050505
129,136,135.5,228.031717171717,118.358231643584,228.031717171717
130,156.333333333333,156,256.96505050505,152.085918710686,256.96505050505
131,187.25,187,285.742828282828,207.719618023304,285.742828282828
132,237.6,237,314.342828282828,279.349225379724,314.342828282828
133,300.5,300.5,342.442828282828,358.727437879401,342.442828282828
134,551.659090909091,589,369.742828282828,437.606952621784,369.742828282828
136,553,553,396.109494949495,560.880677232474,396.109494949495
140,547,547,421.389494949495,578.958137060964,421.389494949495
141,541,541,444.989494949495,557.236948637634,444.989494949495
142,535,535,466.567272727273,534.849128933297,466.567272727273
143,530,530,485.150606060606,516.709472983538,485.150606060606
144,524,524,499.710606060606,506.418878283291,499.710606060606
145,515.5,515.5,509.677272727273,502.322652164885,509.677272727273
146,507,507,502.233333333333,501.452204419994,502.233333333333
147,499,499,494.133333333333,500.838944840295,494.133333333333
148,490,490,484.451851851852,497.514283217463,484.451851851852
149,480,480,473.705185185185,489.26506329024,473.705185185185
150,466,466,462.655185185185,476.89986458563,462.655185185185
151,456,456,451.575185185185,461.982700577702,451.575185185185
152,450,450,440.041851851852,446.077584740526,440.041851851852
153,440,440,431.008518518519,430.517389110229,431.008518518519
154,431.5,431.5,422.675185185185,415.71041997117,422.675185185185
155,401.777777777778,403,415.375185185185,401.833842169769,415.375185185185
156,379.8,378,409.175185185185,389.06482055244,409.175185185185
157,369.25,371,404.464074074074,377.580519965603,404.464074074074
158,363.8,363,401.764074074074,367.845954227325,401.764074074074
159,351,348.5,401.284074074074,361.477533042281,401.284074074074
160,380,380,403.588835978836,360.379515086796,403.588835978836
161,382,382,407.67455026455,366.456159037197,407.67455026455
162,389.5,389.5,415.059735449735,380.784621037101,415.059735449735
163,397,397,421.907883597884,401.133647099296,421.907883597884
164,409.333333333333,409,429.921216931217,424.444880703862,429.921216931217
165,425.5,425.5,438.70455026455,447.659965330879,438.70455026455
166,448.8,449,448.58455026455,467.720544460427,448.58455026455
167,484.571428571429,480,461.051216931217,482.281050478545,461.051216931217
168,501.285714285714,499,473.428994708995,491.8470713951,473.428994708995
169,542.277777777778,546,487.278994708995,497.636984125921,487.278994708995
172,504.5,504.5,507.445661375661,504.53384236225,507.445661375661
173,500,500,524.412328042328,507.403091508406,524.412328042328
174,501,501,542.715105820106,512.509692904512,542.715105820106
175,512,512,560.315105820106,520.679902749136,560.315105820106
177,538,538,579.795105820106,549.202476004408,579.795105820106
178,565.666666666667,566,597.123677248677,571.05050352529,597.123677248677
179,589.75,589.5,613.90462962963,598.376897229664,613.90462962963
180,692,716.5,627.952777777778,629.046636745176,627.952777777778
181,651.5,654,645.052777777778,660.348131213979,645.052777777778
182,683.875,680.5,662.452777777778,689.569789778225,662.452777777778
183,689.5,683,680.119444444444,714.000021580065,680.119444444444
184,741,741,697.386111111111,731.601211337438,697.386111111111
187,744.5,744.5,712.952777777778,752.709300856688,712.952777777778
188,753,753,726.375,753.6210461017,726.375
189,753,753,744.091666666667,753.691086710784,744.091666666667
190,761,761,755.008333333333,754.187345860924,755.008333333333
191,761,761,769.375,756.12038904957,769.375
192,766,766,792.235416666667,760.43644235429,792.235416666667
193,771,771,813.482083333333,768.081731852654,813.482083333333
194,771.5,771.5,839.615416666667,780.002483622229,839.615416666667
195,767,767,866.315416666667,797.342566706775,866.315416666667
196,855.5,764,893.515416666667,822.036422014811,893.515416666667
197,855.75,767,922.04875,856.216133421048,922.04875
198,867,784.5,953.382083333333,902.013784800194,953.382083333333
199,1026.78125,1071,988.44875,961.561460026961,988.44875
200,1008.2,1014,1026.28208333333,1034.35401958422,1026.28208333333
201,1133,1133,1067.94875,1109.33743038749,1067.94875
202,1145,1145,1113.71541666667,1172.82043596043,1113.71541666667
203,1161,1161,1172.54875,1211.11177982674,1172.54875
204,1181,1181,1239.45986111111,1217.01671704667,1239.45986111111
205,1231,1231,1330.02375,1209.32654882686,1330.02375
206,1287,1287,1437.35708333333,1213.32908791052,1437.35708333333
207,1333.5,1333.5,1516.43833333333,1254.31214704087,1516.43833333333
208,1396,1396,1599.95833333333,1357.56353896114,1599.95833333333
209,1458,1458,1678.525,1536.66804916977,1678.525
210,1649.5,1583,1765.99166666667,1758.39835418603,1765.99166666667
211,1859.16666666667,1705.5,1863.25833333333,1977.82410328445,1863.25833333333
212,2214.20833333333,2278.5,1972.30277777778,2150.01494573953,1972.30277777778
213,2477,2477,2098.50277777778,2243.7054096035,2098.50277777778
214,2213,2213,2226.00944444444,2282.28953803945,2226.00944444444
215,2261,2261,2357.84277777778,2302.8262529882,2357.84277777778
216,2311.5,2316,2487.04277777778,2342.37447639055,2487.04277777778
217,2457,2457,2616.39833333333,2437.99313018732,2616.39833333333
218,2620,2620,2738.23166666667,2613.04939253568,2738.23166666667
219,2816.66666666667,2817,2850.75388888889,2836.14346645826,2850.75388888889
220,3124,3145.5,2944.87333333333,3062.18381119407,2944.87333333333
221,3199.6,3217,3030.20666666667,3246.07888598208,3030.20666666667
222,3311,3311,3156.26,3353.85901384718,3156.26
226,3334,3334,3322.63142857143,3345.40425730514,3322.63142857143
227,3398.33333333333,3397,3490.31276190476,3341.5949609404,3490.31276190476
228,3477,3477,3681.40165079365,3380.38670559252,3681.40165079365
229,3547,3547,3914.40165079365,3483.41913321577,3914.40165079365
230,3626,3626,4154.09053968254,3666.38808978055,4154.09053968254
231,3757,3754,4379.75720634921,3921.21423732169,4379.75720634921
232,4103.8,4101,4607.71720634921,4233.87444189014,4607.71720634921
233,4756.57142857143,4611,4840.45053968254,4590.34556953685,4840.45053968254
234,4826.72,4645,5085.25053968254,4976.60448631276,5085.25053968254
235,5323.33333333333,5718.5,5364.43942857143,5376.62186281469,5364.43942857143
236,6115,6076.5,5695.19498412698,5766.34358782284,5695.19498412698
238,6412,6412,6131.06165079365,6410.65885666203,6131.06165079365
239,6509,6509,6591.96498412698,6613.13178714519,6591.96498412698
240,6619,6619,7139.56498412698,6724.47764680951,7139.56498412698
241,6802,6802,7732.24498412698,6835.68516583446,7732.24498412698
242,7006,7006,8302.50688888889,7061.15288177025,8302.50688888889
243,7586.16666666667,7576,8882.12555555555,7515.27933216706,8882.12555555555
244,8438.33333333333,8437,9433.97,8312.46305457508,9433.97
245,10085,9357,9932.90333333333,9505.95316130049,9932.90333333333
246,10539.55,10469.5,10408.67,10904.4010636738,10408.67
247,11971,11971,10875.7366666667,12255.3087477814,10875.7366666667
248,12994,12994,11338.4033333333,13306.1781997098,11338.4033333333
252,13310.5,13310.5,11930.9144444444,13537.9349509667,11930.9144444444
253,13521,13521,12856.5625925926,13188.5791920455,12856.5625925926
254,13601,13601,13591.8885185185,12936.0509660293,13591.8885185185
255,13599,13599,14693.9107407407,12910.2230287176,14693.9107407407
256,13548.5,13548.5,15760.5107407407,13240.9681359098,15760.5107407407
257,13515,13515,16848.8074074074,14026.0321633797,16848.8074074074
258,13559,13559,17866.4074074074,15234.6534667967,17866.4074074074
259,15689.6666666667,14159,18838.8074074074,16803.9435218049,18838.8074074074
260,20890.7222222222,23424.5,19820.4074074074,18671.0138040478,19820.4074074074
261,18616.0555555556,18065.5,20822.4407407407,20772.9757891692,20822.4407407407
262,24968.6666666667,24958,21850.2074074074,23011.1523646918,21850.2074074074
263,26084,26083,22927.5407407407,25143.7120656534,22927.5407407407
264,26864,26864,24548.9740740741,26893.0348389713,24548.9740740741
265,27235,27235,26106.4169312169,27981.5006315623,26106.4169312169
266,27580,27580,28774.6502645503,28268.3999702334,28774.6502645503
267,28034.5,28034.5,31535.2724867725,28160.6657013518,31535.2724867725
268,28551.5,28551.5,33984.1576719577,28202.141251175,33984.1576719577
269,29017.5,29017.5,36590.6873015873,28936.6700459603,36590.6873015873
270,29759,29751,38750.5761904762,30908.0955119651,38750.5761904762
271,37870,31557,40749.4595238095,34464.3032160937,40749.4595238095
272,36876.6428571429,36180.5,42567.2428571429,39169.3472878389,42567.2428571429
275,53582.5,53795.5,44264.2495238095,53858.4604101696,44264.2495238095
276,57099,57099,46037.2995238095,56839.8126537771,46037.2995238095
277,57624,57624,47775.5661904762,58011.9180889822,47775.5661904762
278,57714,57714,49508.3995238095,57750.0503523401,49508.3995238095
279,57367,57367,51422.7661904762,56630.9185536886,51422.7661904762
280,56067.25,56072.5,53322.0995238095,55231.2318028658,53322.0995238095
281,54130.75,54201.5,54712.4328571428,54127.6992097097,54712.4328571428
282,52690.1,52578.5,56198.39,53757.6945901526,56198.39
283,54175.75,54157,56610.99,54001.2505845038,56610.99
284,54108.5,53358,56827.99,54599.0645391667,56827.99
285,54544,54237,57064.1455555556,55291.833800545,57064.1455555556
287,57733,57733,57955.1055555556,56353.7055040226,57955.1055555556
290,58249,58249,58715.6522222222,57802.5086285544,58715.6522222222
291,58725,58725,59703.1022222222,58495.8648323793,59703.1022222222
292,59166,59166,60666.2411111111,59398.1082050683,60666.2411111111
293,59771.5,59771.5,62357.8677777778,60571.4444992457,62357.8677777778
294,60354,60354,63986.1511111111,62054.1419030103,63986.1511111111
295,61166.3333333333,61159,65673.4511111111,63788.7183463591,65673.4511111111
296,71078.4,76683,67860.1344444445,65693.7541947639,67860.1344444445
297,68775.2,63995,69799.6011111111,67687.8298136964,69799.6011111111
298,70879,71874.5,71603.7344444444,69689.5255686281,71603.7344444444
299,68577.8333333333,68510.5,73703.8106349206,71631.0404948841,73703.8106349206
303,78064.5,78064.5,75547.343968254,78664.9529064374,75547.343968254
304,78600,78600,77956.9106349206,80241.8561089129,77956.9106349206
305,79418,79418,80396.3106349206,81746.7141204052,80396.3106349206
306,87344.25,87432,82894.8550793651,83195.1954333662,82894.8550793651
307,86825,83564,84996.9950793651,84664.472971691,84996.9950793651
308,85311,85311,87257.0817460317,86247.0957671357,87257.0817460317
309,90226.1428571429,88828,89506.4817460317,88035.6128514564,89506.4817460317
310,86819,86472.5,91906.4928571429,90122.5732564093,91906.4928571429
312,95915,95915,93663.9928571428,95152.5493748797,93663.9928571428
313,96945,96945,95362.4928571428,97717.6408289204,95362.4928571428
314,98644.5,98644.5,96983.1595238095,100030.062474817,96983.1595238095
315,102610.5,102888,98066.5428571428,101875.260259059,98066.5428571428
316,102676.5,102670.5,99166.8261904762,103096.268968911,99166.8261904762
317,104620,104620,100347.981746032,103766.478754743,100347.981746032
319,104578,104578,101368.825555556,103978.417518926,101368.825555556
322,104427,104427,102858.763333333,103439.808513678,102858.763333333
323,104077.5,104077.5,103071.563333333,103555.783569436,103071.563333333
324,103728,103728,103157.33,103981.254891194,103157.33
325,103595,103595,103082.23,104564.412730114,103082.23
326,103329.25,103708,102736.263333333,105096.889589363,102736.263333333
327,103028.333333333,102702,102505.570740741,105370.317972107,102505.570740741
328,105538.8,106616,102118.642962963,105176.330381513,102118.642962963
329,109168.066666667,109983,101858.10010582,104378.45506355,101858.10010582
332,99107,99107,101501.166772487,100160.1978885,101501.166772487
333,98231.5,98231.5,101300.133439153,98889.2582897177,101300.133439153
334,97518,97518,101101.666772487,98057.5700206978,101101.666772487
335,97421,97392,100887.20010582,97825.4020648958,100887.20010582
336,99216.1111111111,98211,100662.983439153,98102.0714996436,100662.983439153
337,98816.0833333333,98177,100416.661216931,98734.1574257422,100416.661216931
338,100669.857142857,100973,99259.6245502645,99568.2389439929,99259.6245502645
339,99073,99073,97684.5801058201,100450.895155196,97684.5801058201
340,101062,101062,96732.8412169312,101237.65754793,96732.8412169312
344,100751,100751,95935.7316931217,101342.113605541,95935.7316931217
345,100378,100378,94675.3316931217,100109.046378897,94675.3316931217
346,99966,99966,93408.7316931217,98172.8935107478,93408.7316931217
347,99333.5,99333.5,92005.8576190476,95500.9862206735,92005.8576190476
348,88183.25,88209.5,90654.8520634921,92328.8068967457,90654.8520634921
349,85542.4,78413,89189.9282539682,88958.8757191591,89189.9282539682
350,84830.9166666667,77775,87807.8393650794,85693.7128681084,87807.8393650794
351,86274.8571428571,86362.5,86302.3726984127,82835.8385237885,86302.3726984127
353,78612,78612,84749.3155555556,79045.4014972479,84749.3155555556
356,78422,78422,83237.1044444444,77327.8354150945,83237.1044444444
357,78173,78173,81970.0377777778,77503.6475605825,81970.0377777778
358,78551,78551,80736.7711111111,77924.5338692417,80736.7711111111
359,78696,78696,79911.8877777778,78503.8851301041,79911.8877777778
360,78341.6666666667,77471,79239.0944444444,79118.478304166,79239.0944444444
361,78480,78013,78410.5190476191,79635.9368954149,78410.5190476191
362,77455.1428571429,77551,77002.5952380953,79923.884407838,77002.5952380953
363,77694.8333333333,77997.5,76069.9285714286,79849.9443454228,76069.9285714286
365,80960,80960,75131.5285714286,78356.4782746204,75131.5285714286
366,80834.5,80834.5,74217.3285714286,77042.8755727739,74217.3285714286
367,75810,80035,73374.6396825397,75444.4405278739,73374.6396825397
368,75450.5,78210.5,72919.9463492064,73630.9837158528,72919.9463492064
369,72402.2857142857,72431,72854.3611640212,71672.3157126432,72854.3611640212
370,65156,65156,72663.938941799,69668.2105828056,72663.938941799
372,64622,64622,72204.4360846561,66432.164508168,72204.4360846561
373,64346,64346,71680.6583068783,65699.406578771,71680.6583068783
374,64460,64460,70966.5916402117,65889.6140649238,70966.5916402117
375,65910.6666666667,65839,70257.424973545,67133.9577378252,70257.424973545
376,71875.6,70608,69174.724973545,69089.9254226625,69174.724973545
377,77357.8888888889,78195,68187.9316402116,71296.58420812,68187.9316402116
378,75623.6666666667,75566,67486.0992592593,73293.0011828823,67486.0992592593
380,70562.6,70368,66774.3754497354,74811.3780550592,66774.3754497354
381,69838.1666666667,69747,65732.2421164021,73561.0695195797,65732.2421164021
382,70249,70249,64731.3754497354,71154.371866565,64731.3754497354
383,70197,70197,63947.131005291,68027.936523121,63947.131005291
385,59569.5,59569.5,63233.8273015873,61362.4584733717,63233.8273015873
386,60648.6,67570,62247.0634920635,58619.3386034304,62247.0634920635
387,61874.8,63347,60858.5375661376,56438.8066443947,60858.5375661376
388,54480.1428571429,54659,59403.4397883598,54793.2339162803,59403.4397883598
389,48990,48990,58291.5664550265,53654.9917391025,58291.5664550265
391,49333,49333,57201.0886772487,52789.9843176193,57201.0886772487
392,52696.3333333333,50441,56146.6886772487,52992.3446980338,56146.6886772487
393,55211.1111111111,56283,55122.4664550265,53497.81881758,55122.4664550265
394,57074.1428571429,57691,54545.6331216931,54185.0759044065,54545.6331216931
395,56530,56530,53935.1431216931,54932.7851866618,53935.1431216931
399,53797.2,54024,53265.2897883598,56101.5288329401,53265.2897883598
400,53884.5,53884.5,53110.6002645503,55391.4521645978,53110.6002645503
401,53481,53781.5,53386.3469312169,54373.330960764,53386.3469312169
402,54433,54637.5,53668.058042328,53285.3223497761,53668.058042328
403,54833.6666666667,54602,53828.3024867725,52365.5834599715,53828.3024867725
405,50917,50917,53770.3395238095,51572.5917518785,53770.3395238095
407,51491.25,50598.5,53521.033030303,51844.85483627,53521.033030303
408,51827,50527,53289.7663636364,52205.3154863979,53289.7663636364
409,52159.8,51424,53228.7863636364,52621.9201075476,53228.7863636364
410,53126.2,53111,53110.253030303,53024.6121240192,53110.253030303
412,53558.6666666667,52902,52989.7768398268,53599.0565573546,52989.7768398268
413,55100,55100,52806.5768398268,53755.8545340033,52806.5768398268
414,54341.6666666667,55108,52554.3990620491,53823.3187669317,52554.3990620491
415,53334.5454545455,53221,52339.1323953824,53799.6610683588,52339.1323953824
417,53061,53026,52015.9601731602,53465.5416497299,52015.9601731602
418,52882.5,52882.5,51709.8601731602,53142.8610248104,51709.8601731602
419,52106.5,52309.5,51295.2735064935,52707.7633965905,51295.2735064935
420,51673.8571428571,51586,50784.8601731602,52153.7464703976,50784.8601731602
421,51685,51685,50241.5490620491,51474.3079515588,50241.5490620491
424,51051,51051,49608.2157287157,48902.977328543,49608.2157287157
425,47688,47688,49035.8379509379,48046.7511640899,49035.8379509379
426,46643.6666666667,45158,48535.0015873016,47285.5140990519,48535.0015873016
427,47235.5,47778,48054.6682539683,46675.9943801125,48054.6682539683
428,45941,45952.5,47586.7015873016,46257.9861781221,47586.7015873016
429,45470,45470,47169.6015873016,46003.5473606,47169.6015873016
430,45409,45409,46780.2111111111,45867.8017192323,46780.2111111111
431,45600,45600,46241.1444444444,45805.8730457053,46241.1444444444
432,45756,45756,45789.4333333333,45772.8851317053,45789.4333333333
434,45822,45822,45412.1666666667,45675.3937055583,45412.1666666667
435,45856,45856,45142.0222222222,45605.2423420093,45142.0222222222
436,45863,45863,44958.1666666667,45522.1525569192,44958.1666666667
438,45850,45850,44813.5,45321.1537584434,44813.5
