"temp","CO2_av","CO2_med","Moving","Modelled","CO2_scaled"
100,51,51,51.8208333333333,51.8505009787257,51.8208333333333
101,51.75,52.5,53.6208333333333,53.1622703925886,53.6208333333333
102,53.5,53.5,55.6041666666667,54.2685587866757,55.6041666666667
103,54.6598720349581,54.1731030472331,56.9079779269619,55.1536319676563,56.9079779269619
104,55.0989553534313,54.6062848281722,57.5279845624302,55.8017557421999,57.5279845624302
105,55.1135609951888,54.8613241950252,57.7110822500167,56.1971959169759,57.7110822500167
106,55,55,57.7041666666667,56.3242182986536,57.7041666666667
107,55.0229749783583,55.1086972224995,57.7846965611606,56.1969555546111,57.7846965611606
108,55.3207548236537,55.3722253507068,58.3523829696196,55.9490077950616,58.3523829696196
109,56,56,59.8375,55.7438419909269,59.8375
110,57,57,62.0375,55.7449251131286,62.0375
111,57.9187959395013,57.9214362857071,63.1371122293776,56.1157241325887,63.1371122293776
112,59.5,59.5,64.3625,57.0197060202288,64.3625
113,62,62,66.7625,58.6203377469709,66.7625
114,63.423454110911,63.4236242305656,68.0912561558785,61.0810862837367,68.0912561558785
115,65,65,69.3625,64.5654186014479,69.3625
116,68,68,71.9125,69.0866550085261,71.9125
117,71,71,74.5625,74.0575291633914,74.5625
118,75,75,77.4083333333333,78.7406280619636,77.4083333333333
119,78,78,80.4583333333333,82.3985387001627,80.4583333333333
120,81,81,83.5833333333333,84.2938480739083,83.5833333333333
121,84,84,86.7333333333333,84.0768462194816,86.7333333333333
122,86,86,89.9083333333333,82.9486353346099,89.9083333333333
123,90.5,90.5,93.0333333333333,82.4980206573816,93.0333333333333
124,95,95,96.1833333333333,84.313807425885,96.1833333333333
125,98,98,99.4583333333333,89.9848008782088,99.4583333333333
126,101,101,109.883333333333,100.284394851292,109.883333333333
127,104,104,114.033333333333,112.724337577478,114.033333333333
128,108.666666666667,109,122.291666666667,124.000965887959,122.291666666667
129,114.5,114.5,134.897480620155,130.810616613931,134.897480620155
130,117.5,117.5,160.647480620155,129.849626586585,160.647480620155
131,119,119,186.697480620155,119.694825626684,186.697480620155
132,120.5,120.5,212.947480620155,106.445015513261,212.947480620155
133,122,122,239.255813953488,98.0794910149195,239.255813953488
134,125,125,265.605813953488,102.577546900261,265.605813953488
135,130.5,130.5,292.005813953488,127.918477937887,292.005813953488
136,276.5,142,318.655813953488,179.148177237073,318.655813953488
137,154,154,345.980813953488,249.578931269779,345.980813953488
138,240.166666666667,175.5,374.509980620155,329.589624848644,374.509980620155
139,330.116279069767,318,404.184980620155,409.559142786301,404.184980620155
140,596,596,435.669980620155,479.866369895385,435.669980620155
141,661.275983491329,658.844057599451,450.985081494141,533.057837876918,450.985081494141
142,605,605,467.069980620155,570.350665985476,467.069980620155
143,611,611,497.444980620155,595.129620364019,497.444980620155
144,617.841483762535,617.935716825863,513.297629462234,610.779467155511,513.297629462234
145,616.666666666667,617,528.459563953488,620.684972502911,528.459563953488
146,622,622,561.591142900857,628.230902549184,561.591142900857
147,626,626,596.416142900857,636.80202343729,596.416142900857
148,634,634,624.541142900857,649.020246357421,624.541142900857
149,650.5,650.5,659.391142900857,664.456062688692,659.391142900857
150,679.25,679,690.707809567523,681.917108857448,690.707809567523
151,708,708,718.751995614035,700.211021290033,718.751995614035
152,747.2,728,735.151995614035,718.145436412792,735.151995614035
153,747,729,752.501995614035,734.868280535498,752.501995614035
154,728,728,770.568662280702,750.888639501635,770.568662280702
155,742.291666666667,728,789.335328947368,767.055889038117,789.335328947368
156,787.631578947368,807,809.640328947368,784.219404871859,809.640328947368
157,827,827,834.230328947368,803.228562729772,834.230328947368
158,839,839,852.824078947368,824.93273833877,852.824078947368
159,851,851,871.399078947368,849.815456803133,871.399078947368
160,866.5,866.5,889.236578947369,876.896840736607,889.236578947369
161,891,891,906.386578947369,904.831162130302,906.386578947369
162,924,923,922.426578947369,932.27269297533,922.426578947369
163,952,952,939.826578947369,957.875705262803,939.826578947369
164,972.333333333333,973,960.026578947369,980.510201884802,960.026578947369
165,992,992,981.661995614035,999.909109337284,981.661995614035
166,1028.1,1023,1003.08041666667,1016.02108501718,1003.08041666667
167,1117.8,1129,1024.61375,1028.79478632141,1024.61375
168,1005.875,1004,1047.66375,1038.17887064691,1047.66375
169,977.207185148727,971.471288089938,1062.65869366036,1044.38686697138,1062.65869366036
170,1022,1022,1072.36375,1048.69179059565,1072.36375
171,1036.6324315639,1037.98351441245,1083.12735907629,1052.63152840132,1083.12735907629
172,1036,1036,1099.21375,1057.74396726999,1099.21375
173,1051,1051,1122.86660714286,1065.56699408327,1122.86660714286
174,1068,1068,1151.16660714286,1077.63849572275,1151.16660714286
175,1095,1095,1182.36660714286,1095.49635907004,1182.36660714286
176,1132,1132,1213.74994047619,1120.38286535328,1213.74994047619
177,1175,1175,1245.34994047619,1152.35787318671,1245.34994047619
178,1216,1216,1276.14494047619,1191.18563553114,1276.14494047619
179,1257.66666666667,1258,1303.35494047619,1236.63040534733,1303.35494047619
180,1300,1300,1337.06119047619,1288.4564355961,1337.06119047619
181,1345,1345,1372.07785714286,1345.71836893156,1372.07785714286
182,1403.5,1405,1409.17785714286,1404.63240678127,1409.17785714286
183,1364.05714285714,1381,1448.35285714286,1460.7051402661,1448.35285714286
184,1490,1490,1489.85285714286,1509.44316050696,1489.85285714286
185,1576,1576,1533.27785714286,1546.35305862472,1533.27785714286
186,1603.69051597647,1606.95971991899,1556.60975855589,1568.4997221938,1556.60975855589
187,1603.92301482546,1607.04005780301,1565.42252994889,1579.18122460264,1565.42252994889
188,1596.19400626171,1597.60036678552,1574.21653636744,1583.2539356932,1574.21653636744
189,1600,1600,1597.49214285714,1585.57422530747,1597.49214285714
190,1624,1624,1645.72547619048,1590.99846328739,1645.72547619048
191,1644,1644,1710.18658730159,1604.38301947495,1710.18658730159
192,1662,1662,1770.46863858364,1630.5842637121,1770.46863858364
193,1680,1680,1821.02318403818,1674.45856584081,1821.02318403818
194,1722.33333333333,1721,1869.77318403818,1738.8345571537,1869.77318403818
195,1778,1778,1953.84818403818,1818.429914746,1953.84818403818
196,1834.5,1834.5,2042.84532689533,1905.93457716361,2042.84532689533
197,1898,1898,2128.74532689533,1994.0384829524,2128.74532689533
198,1963.5,1963.5,2215.49532689533,2075.43157065827,2215.49532689533
199,2416.28571428571,2110,2308.59532689533,2145.80601320957,2308.59532689533
200,2139.66666666667,2140,2411.62032689533,2212.86292106448,2411.62032689533
201,2505.22222222222,2651,2523.25366022866,2287.30563906369,2523.25366022866
202,2463.30769230769,2529,2637.18699356199,2379.83751204784,2637.18699356199
203,2311.09090909091,2258,2757.43699356199,2501.16188485761,2757.43699356199
204,2320,2320,2871.72684863446,2657.85063094197,2871.72684863446
205,3085,3085,2986.86018196779,2839.94973818317,2986.86018196779
206,3144,3144,3113.76018196779,3033.37372307178,3113.76018196779
207,3208,3208,3248.76018196779,3224.03710209836,3248.76018196779
208,3311,3311,3382.93518196779,3397.85439175348,3382.93518196779
209,3462,3462,3497.68756292017,3544.47599095757,3497.68756292017
210,3684.5,3687.5,3627.45422958684,3668.49582835057,3627.45422958684
211,3876.66666666667,3880,3738.49311847573,3778.24371500225,3738.49311847573
212,3940.66666666667,3943,3850.87773386034,3882.04946198243,3850.87773386034
213,4085,3939,3970.7231884058,3988.24288036089,3970.7231884058
214,4008.13043478261,3966,4092.7731884058,4102.66100174706,4092.7731884058
215,4080.66666666667,4073,4218.53227931489,4221.16973990888,4218.53227931489
216,4372.5,4372.5,4373.85227931489,4337.14222915395,4373.85227931489
217,4545.44681369688,4549.73037756069,4437.93762480512,4443.95160378985,4437.93762480512
218,4588.6047385345,4591.60062784588,4453.54435271935,4534.97099812414,4453.54435271935
219,4598,4598,4518.21137022398,4603.57354646443,4518.21137022398
220,4647,4647,4681.16137022398,4643.13238311828,4681.16137022398
221,4711.33333333333,4716,4838.16137022398,4652.78823231268,4838.16137022398
222,4735,4735,4985.88637022398,4654.7521779521,4985.88637022398
223,4726,4726,5127.35303689065,4677.00289386045,5127.35303689065
224,4711,4711,5271.61970355731,4747.51905386162,5271.61970355731
225,4708,4708,5414.51970355731,4894.27933177947,5414.51970355731
226,4761,4757,5604.52318181818,5134.36080213277,5604.52318181818
227,5600.18181818182,5221,5823.90234848485,5441.23414221977,5823.90234848485
228,6250.4,6540.5,6057.87734848485,5777.46843003356,6057.87734848485
229,6095.18181818182,6102,6305.63359848485,6105.63274356726,6305.63359848485
230,6257.96756649361,6140.18083970433,6425.3339372893,6388.29616081399,6425.3339372893
231,6570,6570,6577.81109848485,6588.02775976685,6577.81109848485
232,6602,6602,6878.99443181818,6682.39291881373,6878.99443181818
233,6604.74067714581,6594.66641748433,7040.24853185398,6708.94221792163,7040.24853185398
234,6639,6639,7198.71943181818,6720.22253745234,7198.71943181818
235,6706,6706,7526.21943181818,6768.78075776764,7526.21943181818
236,6826,6826,7851.20276515152,6907.16375922931,7851.20276515152
237,6943,6943,8188.71943181818,7187.91842219913,8188.71943181818
238,7808.2,7294,8544.66943181818,7643.9667902117,8544.66943181818
239,8468.25,7960,8961.81534090909,8229.73155949289,8961.81534090909
240,9052,8683.5,9427.80962662338,8880.01058944134,9427.80962662338
241,9553.125,9572.5,9926.12553571429,9529.60173945572,9926.12553571429
242,10090.55,10170.5,10401.3255357143,10113.3028689347,10401.3255357143
243,10735,10735,10883.8005357143,10585.7168966905,10883.8005357143
244,11129.5,11129.5,11375.8505357143,10980.6669791892,11375.8505357143
245,11276,11276,11873.8505357143,11351.7813323106,11873.8505357143
246,11210.6666666667,11336,12381.3005357143,11752.6881719345,12381.3005357143
247,11458.3333333333,11453,12904.0505357143,12237.0157139404,12904.0505357143
248,11880,11796.5,13403.2155357143,12840.7108290622,13403.2155357143
249,13943.1,13738,13885.6030357143,13528.9950074492,13885.6030357143
250,15570.2857142857,15801,14456.994702381,14249.4083941047,14456.994702381
251,16061.5,16061.5,15099.808452381,14949.4911340322,15099.808452381
252,16074,16074,15662.4042857143,15576.7833722348,15662.4042857143
253,16034.7400878615,16090.4102864303,15871.0781680517,16090.9079116738,15871.0781680517
254,16032.486249753,16085.8840146761,15861.6625311903,16499.8181871406,15861.6625311903
255,16095.364286768,16119.7907355838,15886.6608271464,16823.5502913845,15886.6608271464
256,16251.5,16251.5,16198.5765079365,17082.1403171548,16198.5765079365
257,16480,16480,16909.9015079365,17295.6243572007,16909.9015079365
258,16666,16666,17668.0181746032,17484.0385042716,17668.0181746032
259,16975,16975,18500.2848412698,17667.4188511166,18500.2848412698
260,17398,17398,19718.6581746032,17865.801490485,19718.6581746032
261,17791.5,17791.5,20711.3748412698,18099.2225151261,20711.3748412698
262,18116,18116,21893.5531746032,18395.3517109142,21893.5531746032
263,20479.8333333333,18502,23139.1565359477,18812.393636224,23139.1565359477
264,22409.4,23986,24593.3815359477,19416.1865425554,24593.3815359477
265,21342.4666666667,21789,26031.3315359477,20272.5686814081,26031.3315359477
266,21458.4444444444,21399,27438.0565359477,21447.3783042821,27438.0565359477
267,22428.9286680688,22577.3385068737,28124.5028510693,22979.3253822002,28124.5028510693
268,23759.0448384744,24018.411097347,28449.0924021484,24798.6067642784,28449.0924021484
269,25356,25356,29105.964869281,26808.2910191559,29105.964869281
270,26438.3333333333,26404,30549.5648692811,28911.4467154717,30549.5648692811
271,27856,27856,32353.9759803922,31011.1424218651,32353.9759803922
272,35825.8,30289,34286.8593137255,33010.4467069752,34286.8593137255
273,31734.3333333333,31756,36507.1843137255,34812.4281394411,36507.1843137255
274,37586.6666666667,34260,38807.8843137255,36348.4299932387,38807.8843137255
275,40482.3529411765,40665,41052.2426470588,37662.89436369,41052.2426470588
276,41802.1833895257,44939.7720834878,41955.1725495269,38828.538051454,41955.1725495269
277,43179.9247163464,46287.0713607987,41975.6843951198,39918.0778571893,41975.6843951198
278,44374.7919202879,45943.5849577103,42126.1953666822,41004.230581555,42126.1953666822
279,45146,45146,43419.1226470588,42159.7130252097,43419.1226470588
280,44833,44769,45939.7326470588,43457.2419888124,45939.7326470588
281,42747.4130584408,44459.8255795255,47191.778639384,44969.5342730218,47191.778639384
282,44386,44386,48260.2229248366,46769.3066784967,48260.2229248366
283,49838.1666666667,44447,50634.0284803922,48898.1393920701,50634.0284803922
284,45538,45107,53411.4618137255,51273.0661452716,53411.4618137255
285,53063.2222222222,51489,56518.5868137255,53779.9840558049,56518.5868137255
286,56055.6666666667,56250,59231.0134803922,56304.7902413736,59231.0134803922
287,62198,62198,62083.1134803922,58733.3818196815,62083.1134803922
288,64563.9907234574,64199.388196509,63434.7770838315,60988.4765885751,63434.7770838315
289,64130,64130,64801.1036764706,63140.0750664734,64801.1036764706
290,65367,65367,67717.5860294118,65294.9984519381,67717.5860294118
291,69747,66784,70440.3860294118,67560.067943531,70440.3860294118
292,71754.6666666667,67436,73217.5860294118,70042.1047398138,73217.5860294118
293,67868.25,67916.5,76362.0985294118,72847.9300393485,76362.0985294118
294,72832.1111111111,72673,79052.3901960784,76035.7292184118,79052.3901960784
295,81987,81987,82235.6601960784,79469.1443641416,82235.6601960784
296,87699.8428663758,88881.2333474932,83756.3894758202,82963.1817413905,83756.3894758202
297,89998.5,90128,85150.1490849673,86332.8476150116,85150.1490849673
298,90074.3333333333,87079,88176.7965208648,89393.1482498577,88176.7965208648
299,88776.3333333333,88833,91237.8965208648,91959.0899107817,91237.8965208648
300,91946.4705882353,91133,94185.3965208648,93912.3261639673,94185.3965208648
301,95924.8542764593,95102.9746529531,96023.5283190783,95401.0997809226,96023.5283190783
302,98812,98812,97069.7715208648,96640.3008344866,97069.7715208648
303,100069.761960984,99815.2577929516,98076.4284784802,97844.8193974983,98076.4284784802
304,99602,99602,99708.9215208648,99229.5455427966,99708.9215208648
305,100377,100377,102293.908187531,101009.369343221,102293.908187531
306,107276.25,102376.5,105001.558187531,103399.180871609,105001.558187531
307,103644,103644,107322.16691769,106516.129070605,107322.16691769
308,109203.4,106068,109536.59191769,110086.398362066,109536.59191769
309,111353,108624,111667.074060547,113738.432037654,111667.074060547
310,116588.615384615,116588,113472.607393881,117100.673389029,113472.607393881
311,123420,123420,115269.140727214,119801.565707853,115269.140727214
312,124543.883049957,124419.181290788,116195.306585181,121571.875900119,116195.306585181
313,123080,123080,116884.767197802,122551.665329144,116884.767197802
314,123054.5,123054.5,118110.792197802,122983.318972575,118110.792197802
315,122530,122530,119394.613626374,123109.22180806,119394.613626374
316,123454.4,121824,120428.451126374,123171.758813248,120428.451126374
317,122021.25,119893,120838.188626374,123413.314965787,120838.188626374
318,119244.285714286,118496,121411.338626374,124004.694019584,121411.338626374
319,126275.5,126735,121698.368626374,124830.374833588,121698.368626374
320,132608.142857143,133028,121787.293626374,125703.255043009,121787.293626374
321,126185,126185,121382.987857143,126436.232283053,121382.987857143
322,123585.50893341,123600.030923976,120990.77366892,126842.20418893,120990.77366892
323,124707,124707,120430.90452381,126734.068395849,120430.90452381
324,124259,124259,119501.20452381,125974.432452621,119501.20452381
325,123332.5,124986.5,118638.27952381,124624.743562467,118638.27952381
326,125278.428571429,126959,117553.97952381,122796.158842212,117553.97952381
327,121053.75,121027.5,116348.15952381,120599.83540868,116348.15952381
328,115471,115471,115092.49702381,118146.930378697,115092.49702381
329,115107,115107,113813.882738095,115554.748328211,113813.882738095
330,114944,114941,112011.257738095,112965.183669673,112011.257738095
331,113131.5,113815.5,109356.067261905,110526.278274659,109356.067261905
332,108502.5,107867,106992.017261905,108386.074014743,106992.017261905
333,104378.333333333,104295,104385.083928571,106692.612761502,104385.083928571
334,104486,104994,101789.833928571,105526.412711422,101789.833928571
335,105796,105796,99257.1089285714,104697.89736064,99257.1089285714
336,105136.302152223,104879.385079038,98170.2482658466,103949.9665302,98170.2482658466
337,103022.735987545,102878.294603034,97765.5400561274,103025.520041151,97765.5400561274
338,100844,100844,96597.4875,101667.457714538,96597.4875
339,99338,99338,93887.9,99618.6793714093,93887.9
340,96908,96908,91195.3666666667,96622.0848328104,91195.3666666667
341,93672,93672,89022.9833333334,92549.4367060368,89022.9833333334
342,90223,90171,86454.6958333333,87787.9487433761,86454.6958333333
343,79504.3333333333,74383,83963.4930555556,82853.6974833646,83963.4930555556
344,78904,78597.5,81694.7180555556,78262.7594645382,81694.7180555556
345,72568.3333333333,72412,79207.6513888889,74531.2112254331,79207.6513888889
346,72354,72354,76689.8013888889,72036.2326200942,76689.8013888889
347,72678,72678,74084.9313888889,70599.4167646022,74084.9313888889
348,73239.607672865,71021.3157210357,72961.6144043511,69903.4600905468,72961.6144043511
349,73533.4476608069,69892.0683536912,72640.1323563136,69631.0590295173,72640.1323563136
350,72086,72086,71713.2313888889,69464.9100131035,71713.2313888889
351,66862,72059,69456.1813888889,69087.709472895,69456.1813888889
352,61620.3333333333,57027,67332.5313888889,68182.1538404813,67332.5313888889
353,71659.3333333333,71686,65382.8813888889,66531.7584464176,65382.8813888889
354,63578.25,64036.5,63504.8480555556,64323.3142171221,63504.8480555556
355,63307.4444444444,59436,62050.7480555556,61844.4309779784,62050.7480555556
356,63127,62955,60785.6980555556,59382.7185543703,60785.6980555556
357,54637,54637,59757.0725653595,57225.7867716811,59757.0725653595
358,54129,54129,58986.3100653595,55598.7855346874,58986.3100653595
359,53698.6,53739,57847.3600653595,54477.0250657357,57847.3600653595
360,53410,53410,56786.8600653595,53773.3556665654,56786.8600653595
361,54197,54197,55944.2100653595,53400.6276389156,55944.2100653595
362,54570.4220650816,54823.6180407558,55699.2257364349,53271.6912845257,55699.2257364349
363,54457.6553564962,55013.7015044761,55816.5914663453,53299.3969051349,55816.5914663453
364,54274.0609696626,54854.9342159584,55866.6279540962,53396.5948024824,55866.6279540962
365,54435,54435,55419.6558986928,53476.1352783076,55419.6558986928
366,54679,54679,54396.7267320261,53468.2022553803,54396.7267320261
367,52662.3333333333,54928,53698.2187774807,53372.3141405938,53698.2187774807
368,50422.3333333333,48557,53021.3465552585,53205.322961872,53021.3465552585
369,53603,55748,52359.5965552585,52984.0807471387,52359.5965552585
370,51995.8235294118,51535,52146.7283734403,52725.4395243179,52146.7283734403
371,56938.75,57369,51883.2033734403,52446.2513213335,51883.2033734403
372,49899,49899,51650.5233734403,52160.7415735127,51650.5233734403
373,46684.6408627857,46433.9883882175,51584.1203677697,51872.6293457968,51584.1203677697
374,48831.2316291602,48869.077691373,51569.5118271369,51583.0071105303,51569.5118271369
375,50876,50876,51437.7233734403,51292.9673400577,51437.7233734403
376,50009,49600,51145.4233734403,51003.6025067238,51145.4233734403
377,51129.25,51582.5,50957.3358734403,50716.005082873,50957.3358734403
378,51200.75,51305,50684.1858734403,50431.2675408499,50684.1858734403
379,49608.0909090909,49376,50618.8192067736,50152.0253070648,50618.8192067736
380,49770,49770,50698.9989686784,49887.0856241904,50698.9989686784
