"temp","CO2_av","CO2_med","Moving*","Modelled","CO2_scaled","CO2_prop"
76,336.731884057971,336.731884057971,298.322873901193,334.217418848332,298.322873901193,0.0175305464437834
77,341.722995169082,341.722995169082,293.438344577591,338.456956498909,293.438344577591,0.0172435135822276
79,345.257777777778,345.257777777778,283.958259698433,346.011180432571,283.958259698433,0.0166864290178032
84,346.211111111111,346.211111111111,270.996587517689,344.640732417402,270.996587517689,0.0159247536116159
86,317.144444444444,317.144444444444,256.145038793734,330.081367220117,256.145038793734,0.0150520221268903
90,280.544444444444,280.544444444444,240.766621382911,280.285191847183,240.766621382911,0.0141483299053491
94,235.977777777778,235.977777777778,225.119759527643,217.082476005185,225.119759527643,0.0132288629034856
96,190.733333333333,190.733333333333,209.141584541063,185.76493522157,209.141584541063,0.0122899267266307
98,153.533333333333,153.533333333333,192.763903381642,157.469283096629,192.763903381642,0.0113275141015037
101,123.933333333333,123.933333333333,175.98237037037,123.998450190291,175.98237037037,0.0103413696600639
102,101.8,101.8,158.854074074074,115.263585761208,158.854074074074,0.00933484813592309
104,90.8666666666667,90.8666666666667,141.513333333333,101.232681602491,141.513333333333,0.00831584259689142
106,90.0666666666667,90.0666666666667,125.919259259259,91.570993587376,125.919259259259,0.00739947759869856
108,91.1333333333333,91.1333333333333,112.52962962963,86.0194615690692,112.52962962963,0.00661265384288752
110,91.4666666666667,91.4666666666667,101.842222222222,84.3190254007757,101.842222222222,0.00598462257773805
111,91.0666666666667,91.0666666666667,93.8755555555555,84.7660118952292,93.8755555555555,0.005516472019332
112,90,90,88.0866666666666,85.6826243814491,88.0866666666666,0.00517629567214992
113,88.3333333333333,88.3333333333333,83.9666666666667,86.640479925397,83.9666666666667,0.00493418935826294
114,86.1,86.1,81.0355555555556,87.2111955930348,81.0355555555556,0.00476194651682986
115,83.2333333333333,83.2333333333333,78.5866666666667,86.9663884503241,78.5866666666667,0.00461804082216781
117,79.7,79.7,75.9985185185185,83.0175856703238,75.9985185185185,0.00446595174257034
118,75.6666666666667,75.6666666666667,73.2581481481481,79.42057771481,73.2581481481481,0.00430491752678018
119,71.2333333333333,71.2333333333333,70.5244444444444,74.8715664761891,70.5244444444444,0.00414427506877948
120,66.7,66.7,68.0218518518518,69.4678527748878,68.0218518518518,0.0039972135474801
121,62.1333333333333,62.1333333333333,66.1032592592592,63.3067374313325,66.1032592592592,0.00388447000853751
122,57.8333333333333,57.8333333333333,65.2132380952381,56.656546243712,65.2132380952381,0.00383216909996893
123,54.1333333333333,54.1333333333333,65.874328042328,50.469704921263,65.874328042328,0.00387101717041497
124,51.2444444444444,51.2444444444444,68.3385552443199,45.8696641509846,68.3385552443199,0.00401582420062232
125,50.0277777777778,50.0277777777778,72.5827824463119,43.9798746198756,72.5827824463119,0.0042652305606158
126,50.4611111111111,50.4611111111111,78.6625652038594,45.923787014935,78.6625652038594,0.0046225008986409
127,53.5277777777778,53.5277777777778,86.6356812947402,52.8248520231617,86.6356812947402,0.00509103044887296
128,61.2211111111111,61.2211111111111,96.5287973856209,65.3725792551564,96.5287973856209,0.00567238624246983
129,74.9830158730159,74.9830158730159,108.368580143168,82.520714015928,108.368580143168,0.00636813531058935
130,96.0163492063492,96.0163492063492,122.141696234049,102.789060534087,122.141696234049,0.0071774941376526
131,120.196741363212,120.196741363212,137.79481232493,124.697423038243,137.79481232493,0.00809732866134389
132,143.363408029879,143.363408029879,155.242002489885,146.765605757008,155.242002489885,0.00912258955904349
133,166.863408029879,166.863408029879,174.295859321506,167.874016686665,174.295859321506,0.0102422640840032
134,190.830074696545,190.830074696545,194.763049486461,188.345478894185,194.763049486461,0.0114449912603287
135,215.096741363212,215.096741363212,218.335795206972,208.863419214215,218.335795206972,0.0128302122735782
136,239.730074696545,239.730074696545,245.097577964519,230.1112644814,245.097577964519,0.0144028328018486
137,264.430074696545,264.430074696545,274.117032679739,252.772441530385,274.117032679739,0.0161081224164388
138,288.930074696545,288.930074696545,305.180487394958,277.351301846567,305.180487394958,0.0179335249692779
139,312.952296918768,312.952296918768,337.409223155929,303.635895518337,337.409223155929,0.0198274037111046
141,335.835630252101,335.835630252101,371.261662620604,359.758181885225,371.261662620604,0.0218166972389868
142,357.468963585434,357.468963585434,406.874546529723,388.813824058629,406.874546529723,0.0239094409404726
143,407.118963585434,407.118963585434,443.953144724556,418.011098544198,443.953144724556,0.0260883153902415
145,462.647852474323,462.647852474323,482.347298474945,475.26644340841,482.347298474945,0.0283444967104639
146,510.274836601307,510.274836601307,522.036267040149,502.681247400022,522.036267040149,0.0306767660991284
147,561.968169934641,561.968169934641,563.738251478369,529.506287468477,563.738251478369,0.0331273276850773
149,603.627777777778,603.627777777778,606.468137151157,583.153794024888,606.468137151157,0.035638292518342
151,651.15,651.15,650.170397551613,639.742399455597,650.170397551613,0.0382063976576827
153,701.056666666667,701.056666666667,694.801803251215,702.805540138559,694.801803251215,0.0408291027832955
155,747.009047619047,747.009047619047,740.134576472184,774.311151239954,740.134576472184,0.043493022837374
156,791.009047619048,791.009047619048,782.037435163239,811.985830248017,782.037435163239,0.0459553885313104
157,835.064603174603,835.064603174603,819.35984940985,849.965163078879,819.35984940985,0.0481485905067012
158,889.959841269841,889.959841269841,852.390649899847,887.516703370953,852.390649899847,0.0500896015143151
159,929.87835978836,929.87835978836,880.099766179317,923.908004762655,880.099766179317,0.0517178908355501
160,968.486202925615,968.486202925615,903.632342946012,958.131902102785,903.632342946012,0.0531007513737168
161,1005.30671574613,1005.30671574613,922.145067860856,988.082355081676,922.145067860856,0.054188627002148
162,1037.46056189997,1037.46056189997,935.48324133537,1011.37860460005,935.48324133537,0.0549724270055217
163,1035.66184395126,1035.66184395126,943.771006274886,1025.63989155862,943.771006274886,0.0554594464763634
164,1022.48406617348,1022.48406617348,947.53266010329,1028.48545685811,947.53266010329,0.0556804950546435
165,1005.73684395126,1005.73684395126,947.361474425522,1018.43904967769,947.361474425522,0.055670435556237
166,977.604914126694,977.604914126694,941.729590335055,997.642452310368,941.729590335055,0.0553394853869696
167,956.616429278209,956.616429278209,932.456125997675,969.141955327622,932.456125997675,0.0547945426035508
168,928.840873722654,928.840873722654,919.875689982735,935.983849300916,919.875689982735,0.0540552700330003
169,901.129268784382,901.129268784382,904.189321093081,901.214424801718,904.189321093081,0.0531334814528679
170,871.325521711783,871.325521711783,887.50663691378,867.879972401495,887.50663691378,0.0521531457314137
171,847.433855045116,847.433855045116,872.282115127639,838.64689245805,872.282115127639,0.0512584969813325
172,832.496818008079,832.496818008079,859.698960862867,814.662024474519,859.698960862867,0.0505190646764502
173,805.481579912841,805.481579912841,850.028298180586,796.69231774037,850.028298180586,0.049950781061195
174,790.776394727656,790.776394727656,844.219003919358,785.504721545072,844.219003919358,0.0496094056194788
175,779.779662701512,779.779662701512,841.852516184936,781.866185178094,841.852516184936,0.0494703421189352
176,770.011182401325,770.011182401325,842.867752356239,786.177508371285,842.867752356239,0.0495300011206728
177,787.220299210441,787.220299210441,847.235646963755,797.37489262601,847.235646963755,0.0497866746310788
178,807.294017159159,807.294017159159,857.518326895237,814.028389886012,857.518326895237,0.0503909226250328
179,833.736752201894,833.736752201894,873.039895715608,834.708052095034,873.039895715608,0.0513030269485384
180,860.676903717046,860.676903717046,893.581365770547,857.983931196822,893.581365770547,0.0525101190836891
181,890.465500208274,890.465500208274,918.931851698502,882.894398856531,918.931851698502,0.0539998066330243
182,921.119113261887,921.119113261887,949.618831453616,910.35110562497,949.618831453616,0.0558030861361396
183,944.06941629219,944.06941629219,984.862947841162,941.734021774362,984.862947841162,0.057874159705264
184,966.647687897128,966.647687897128,1024.00727185848,978.423117576927,1024.00727185848,0.06017442378231
185,1025.56572068401,1025.56572068401,1063.56679055765,1021.79836330489,1063.56679055765,0.0624990862219703
186,1080.25738735068,1080.25738735068,1104.4606804412,1073.23972923047,1104.4606804412,0.0649021612074571
187,1140.61886883216,1140.61886883216,1144.84487231905,1133.01049364499,1144.84487231905,0.0672752844683432
188,1185.73886883216,1185.73886883216,1185.16603092298,1196.90716691623,1185.16603092298,0.0696447036628214
189,1251.08109105438,1251.08109105438,1224.78002861388,1259.60956743106,1224.78002861388,0.0719725674878871
190,1308.4414085147,1308.4414085147,1266.53899910975,1315.79751357634,1266.53899910975,0.0744264777836324
191,1357.17604266104,1357.17604266104,1312.14118846084,1360.15082373896,1312.14118846084,0.077106229717848
192,1380.61307969808,1380.61307969808,1361.31149303827,1389.48970166516,1361.31149303827,0.0799956571921056
193,1420.70236541237,1420.70236541237,1409.67629913361,1409.19589253878,1409.67629913361,0.0828377506206495
194,1439.49963036963,1439.49963036963,1457.75410522895,1426.791526903,1457.75410522895,0.0856629788763571
195,1465.49428277605,1465.49428277605,1512.15892366996,1449.79873530104,1512.15892366996,0.0888600055876302
196,1484.67546557175,1484.67546557175,1575.03018655543,1485.73964827608,1575.03018655543,0.0925545516329259
197,1547.50367069995,1547.50367069995,1639.7882642557,1540.25590524331,1639.7882642557,0.0963599738383678
198,1628.10225655854,1628.10225655854,1708.1855588872,1611.46718110576,1708.1855588872,0.100379249780861
199,1704.20225655854,1704.20225655854,1780.17624827931,1695.61265963843,1780.17624827931,0.104609686781566
200,1751.03781211409,1751.03781211409,1858.12256377371,1788.93152461635,1858.12256377371,0.109190098219775
201,1801.42447878076,1801.42447878076,1940.63343649451,1887.66295981451,1940.63343649451,0.114038739785317
202,1956.69114544743,1956.69114544743,2029.48792175092,1988.04614900792,2029.48792175092,0.119260155294481
203,2128.80781211409,2128.80781211409,2124.18689106358,2087.31269163694,2124.18689106358,0.124825014126807
204,2222.45225655854,2222.45225655854,2234.44459155904,2186.66384980328,2234.44459155904,0.131304161079382
205,2334.40082798711,2334.40082798711,2352.79893023113,2288.29330127399,2352.79893023113,0.138259096193079
206,2437.03638354266,2437.03638354266,2477.10113422309,2394.39472381614,2477.10113422309,0.145563549692235
207,2549.80781211409,2549.80781211409,2608.76659747431,2507.16179519679,2608.76659747431,0.153300695316986
208,2658.36545622437,2658.36545622437,2748.32065331813,2628.15975098172,2748.32065331813,0.161501403581142
210,2772.31690921582,2772.31690921582,2896.17470916194,2890.42574060607,2896.17470916194,0.170189850293177
211,2885.97882246597,2885.97882246597,3039.56326073225,3028.53982356441,3039.56326073225,0.17861588759276
212,3138.5409730036,3138.5409730036,3176.13529056342,3169.20533136614,3176.13529056342,0.186641361069092
213,3322.81875078138,3322.81875078138,3325.35620928349,3310.84528857071,3325.35620928349,0.195410129657962
214,3492.63531643795,3492.63531643795,3484.60430260673,3452.83852605482,3484.60430260673,0.204768131810394
215,3679.18420532684,3679.18420532684,3654.19394090352,3598.38709996409,3654.19394090352,0.214733841082593
216,3844.34864977128,3844.34864977128,3832.86837637844,3751.64887276136,3832.86837637844,0.225233406363823
217,4019.23531643795,4019.23531643795,4024.13494653789,3916.78170690947,4024.13494653789,0.236472931672345
218,4107.51941900205,4107.51941900205,4227.74716620374,4097.94346487129,4227.74716620374,0.24843793263488
219,4177.38825958176,4177.38825958176,4437.84862532294,4299.29200910966,4437.84862532294,0.260784265112945
220,4460.76603735954,4460.76603735954,4635.70249662853,4522.97074551044,4635.70249662853,0.272410884401796
221,4723.12222783573,4723.12222783573,4835.20747904523,4763.06525365156,4835.20747904523,0.284134529036503
222,4980.88095799446,4980.88095799446,5036.83181884528,5011.64665653394,5036.83181884528,0.295982714885747
223,5229.92434423785,5229.92434423785,5238.33956605274,5260.78607715853,5238.33956605274,0.30782404932654
224,5527.36400861618,5527.36400861618,5443.14711952801,5502.55463852625,5443.14711952801,0.319859292488702
225,5826.50020420354,5826.50020420354,5650.59817300327,5730.79742387148,5650.59817300327,0.33204987740833
226,6037.50070925405,6037.50070925405,5865.89818671637,5946.45535736226,5865.89818671637,0.344701696024809
227,6106.34904258738,6106.34904258738,6096.13679946328,6152.2433234001,6096.13679946328,0.358231361521558
228,6315.39348703182,6315.39348703182,6316.76382971862,6350.87620638646,6316.76382971862,0.371196215171789
229,6517.00041343875,6517.00041343875,6530.42383351892,6545.06889072284,6530.42383351892,0.383751660789548
230,6701.80041343875,6701.80041343875,6738.87333996473,6737.36719184949,6738.87333996473,0.396000918468469
231,6916.46195190029,6916.46195190029,6943.73420443523,6929.64064936169,6943.73420443523,0.408039294380278
232,7131.00111856696,7131.00111856696,7141.26794796327,7123.58973389345,7141.26794796327,0.419647101786557
233,7337.01962469851,7337.01962469851,7332.88618942233,7320.91491607883,7332.88618942233,0.430907292590722
234,7630.96745078546,7630.96745078546,7530.02382482078,7523.31666655186,7530.02382482078,0.442491823230215
235,7770.1714911895,7770.1714911895,7742.69768244145,7731.77700334352,7742.69768244145,0.454989319280862
236,7928.0222848403,7928.0222848403,7956.38265117323,7944.40413407256,7956.38265117323,0.467546231929577
237,8107.62355468157,8107.62355468157,8171.46233274772,8158.5878137547,8171.46233274772,0.480185103021321
238,8302.83731129532,8302.83731129532,8388.66180268201,8371.71779740562,8388.66180268201,0.492948540653359
239,8490.37016153687,8490.37016153687,8605.90655407812,8581.18384004104,8605.90655407812,0.505714639190205
240,8700.77382608937,8700.77382608937,8824.37230547424,8784.37569667667,8824.37230547424,0.518552488166191
241,8994.56524023078,8994.56524023078,9044.03798254854,8980.86094648875,9044.03798254854,0.531460849176858
242,9296.45690689745,9296.45690689745,9268.57558232816,9178.91846529571,9268.57558232816,0.544655502237944
243,9520.66801800856,9520.66801800856,9504.06766022225,9389.00495307653,9504.06766022225,0.558493880618654
244,9743.19563705618,9743.19563705618,9743.13751589413,9621.5771098102,9743.13751589413,0.572542502346374
245,9959.79246245301,9959.79246245301,9985.90995357658,9887.0916354757,9985.90995357658,0.58680870137566
246,10175.133222842,10175.133222842,10224.0027439927,10190.3863652217,10224.0027439927,0.600799907164668
247,10407.9873895087,10407.9873895087,10460.4031592076,10513.8236748759,10460.4031592076,0.614691662778508
248,10632.0047808131,10632.0047808131,10691.0112954869,10834.1470754357,10691.0112954869,0.628243042833589
249,10999.0314474797,10999.0314474797,10909.5433807802,11128.1000778984,10909.5433807802,0.641084789832712
250,11302.5526596009,11302.5526596009,11117.4449105179,11372.4261932615,11117.4449105179,0.653301846390057
251,11514.0701199184,11514.0701199184,11315.7789362298,11550.3796197238,11315.7789362298,0.664956681313233
252,11749.2101199184,11749.2101199184,11525.3291206719,11671.2573042906,11525.3291206719,0.677270618868965
253,11874.2291675374,11874.2291675374,11747.6528500876,11750.8668811686,11747.6528500876,0.690335176786059
254,12036.3763897597,12036.3763897597,11981.6311692047,11805.0159845647,11981.6311692047,0.704084601147933
258,12159.8958702791,12159.8958702791,12225.1325438774,12083.1603474643,12225.1325438774,0.718393635188812
259,12272.5465196298,12272.5465196298,12477.3912776483,12247.121596552,12477.3912776483,0.733217283775966
260,12414.9798529631,12414.9798529631,12715.0980960753,12474.3845830124,12715.0980960753,0.747185808434986
261,12495.6784036878,12495.6784036878,12941.9166316741,12750.3389691226,12941.9166316741,0.760514497652231
262,12886.4484036878,12886.4484036878,13170.900373622,13054.2908227739,13170.900373622,0.77397042233744
263,13294.6484036878,13294.6484036878,13399.6681155699,13365.5462118576,13399.6681155699,0.78741365407027
264,13684.8080095991,13684.8080095991,13642.9228416448,13663.4112042649,13642.9228416448,0.801708194134732
265,14060.5080095991,14060.5080095991,13893.1083084605,13933.0364031443,13893.1083084605,0.816410009949982
266,14415.8857873769,14415.8857873769,14156.2130409487,14182.9505526732,14156.2130409487,0.831871009209436
267,14564.6337238848,14564.6337238848,14433.086777766,14427.5269322866,14433.086777766,0.848141125673742
268,14704.8306935818,14704.8306935818,14719.7474987102,14681.138821419,14719.7474987102,0.86498636122811
269,14948.8262491373,14948.8262491373,15021.1901017801,14958.1594995053,15021.1901017801,0.882700234402317
270,15180.7262491373,15180.7262491373,15295.3372048499,15267.2811616607,15295.3372048499,0.898810123865189
271,15523.0500586611,15523.0500586611,15534.3960010415,15594.4716657217,15534.3960010415,0.912858095697275
272,15789.1583919945,15789.1583919945,15739.227209342,15920.0177852055,15739.227209342,0.924894728903743
273,16106.4668576029,16106.4668576029,15900.0830641071,16224.2062936291,15900.0830641071,0.934347209016444
274,16425.6525718887,16425.6525718887,16018.5574373908,16487.3239645095,16018.5574373908,0.941309197804255
275,16714.8906671268,16714.8906671268,16109.2287207274,16689.6575713638,16109.2287207274,0.946637375033386
276,17017.3174497354,17017.3174497354,16176.012057936,16815.1472063462,16176.012057936,0.95056180891704
277,16998.6549497354,16998.6549497354,16200.1352469965,16862.3462361594,16200.1352469965,0.951979376000203
278,16880.5303465608,16880.5303465608,16185.4258434644,16833.4613461432,16185.4258434644,0.951114997488399
279,16757.2761341066,16757.2761341066,16120.0567573926,16730.6992216373,16120.0567573926,0.947273670189612
280,16473.3458310763,16473.3458310763,16011.3804490986,16556.2665479815,16011.3804490986,0.940887451644003
281,16193.0013866319,16193.0013866319,15857.3293901231,16314.1964195946,15857.3293901231,0.931834846294749
282,15924.7029739335,15924.7029739335,15654.9192835287,16015.8275672107,15654.9192835287,0.919940485906142
283,15706.5807517113,15706.5807517113,15410.7682951,15674.3251306428,15410.7682951,0.905593278177906
284,15310.6740850446,15310.6740850446,15126.063731265,15302.8542497038,15126.063731265,0.888862993591286
285,14960.0851961557,14960.0851961557,14827.1145378005,14914.5800642067,14827.1145378005,0.871295642312356
286,14542.5137675843,14542.5137675843,14524.4980956587,14521.8502506399,14524.4980956587,0.853512790048146
287,14159.0137675843,14159.0137675843,14218.8954956007,14133.7426321926,14218.8954956007,0.835554460190304
288,13795.7009729715,13795.7009729715,13929.6933462032,13758.5175687292,13929.6933462032,0.818559880976997
289,13389.5009729715,13389.5009729715,13656.5186042131,13404.4354201142,13656.5186042131,0.802507131018198
290,13052.6258406963,13052.6258406963,13394.4253437045,13079.7565462122,13394.4253437045,0.78710556956277
291,12746.7489922115,12746.7489922115,13139.5301572699,12791.7358747588,13139.5301572699,0.772126993345488
292,12514.417047767,12514.417047767,12917.522637502,12543.6066049737,12917.522637502,0.759081017067285
293,12341.2837144337,12341.2837144337,12721.7583769934,12337.5965039481,12721.7583769934,0.747577190974433
